Date,Adj Close
2017-01-03,68.5928955078125
2017-01-04,69.72955322265625
2017-01-05,69.01561737060547
2017-01-06,69.04380798339844
2017-01-09,69.212890625
2017-01-10,68.40503692626953
2017-01-11,68.6116714477539
2017-01-12,68.88410186767578
2017-01-13,69.04380798339844
2017-01-17,68.89350128173828
2017-01-18,69.0250244140625
2017-01-19,68.32047271728516
2017-01-20,67.29657745361328
2017-01-23,68.05747985839844
2017-01-24,69.08137512207031
2017-01-25,68.9780502319336
2017-01-26,68.87472534179688
2017-01-27,68.98745727539062
2017-01-30,68.62892150878906
2017-01-31,68.84590911865234
2017-02-01,69.76109313964844
2017-02-02,69.18557739257812
2017-02-03,69.61014556884766
2017-02-06,69.20443725585938
2017-02-07,68.61946105957031
2017-02-08,69.39313507080078
2017-02-09,69.41201782226562
2017-02-10,70.56305694580078
2017-02-13,70.22340393066406
2017-02-14,69.65731048583984
2017-02-15,69.06291198730469
2017-02-16,70.00639343261719
2017-02-17,69.72335815429688
2017-02-21,70.37433624267578
2017-02-22,70.0630111694336
2017-02-23,69.930908203125
2017-02-24,70.15736389160156
2017-02-27,70.27056121826172
2017-02-28,70.29888153076172
2017-03-01,71.76127624511719
2017-03-02,71.52539825439453
2017-03-03,71.74240112304688
2017-03-06,71.37444305419922
2017-03-07,71.2046127319336
2017-03-08,71.64806365966797
2017-03-09,71.56314849853516
2017-03-10,72.45001983642578
2017-03-13,72.41227722167969
2017-03-14,72.20469665527344
2017-03-15,72.87457275390625
2017-03-16,72.62926483154297
2017-03-17,72.7236328125
2017-03-20,73.440673828125
2017-03-21,72.43113708496094
2017-03-22,72.50662994384766
2017-03-23,72.79911804199219
2017-03-24,72.28963470458984
2017-03-27,72.28963470458984
2017-03-28,72.71417999267578
2017-03-29,72.6858901977539
2017-03-30,72.51607513427734
2017-03-31,72.63871002197266
2017-04-03,72.12924194335938
2017-04-04,72.40283966064453
2017-04-05,71.78014373779297
2017-04-06,72.20469665527344
2017-04-07,71.85562133789062
2017-04-10,72.54434967041016
2017-04-11,72.57267761230469
2017-04-12,71.92168426513672
2017-04-13,71.51597595214844
2017-04-17,72.90288543701172
2017-04-18,73.18595123291016
2017-04-19,73.16706848144531
2017-04-20,73.42179870605469
2017-04-21,73.5821762084961
2017-04-24,73.87467193603516
2017-04-25,74.2803726196289
2017-04-26,74.85587310791016
2017-04-27,74.33699035644531
2017-04-28,75.76165008544922
2017-05-01,75.52483367919922
2017-05-02,75.97003936767578
2017-05-03,76.20681762695312
2017-05-04,77.09725952148438
2017-05-05,77.5898666381836
2017-05-08,78.158203125
2017-05-09,78.12979125976562
2017-05-10,78.49921417236328
2017-05-11,78.1771469116211
2017-05-12,78.0824203491211
2017-05-15,78.27186584472656
2017-05-16,78.42344665527344
2017-05-17,77.9403305053711
2017-05-18,77.80770111083984
2017-05-19,78.01610565185547
2017-05-22,78.47077941894531
2017-05-23,78.80235290527344
2017-05-24,78.9917984008789
2017-05-25,79.71170806884766
2017-05-26,79.92009735107422
2017-05-30,80.08113861083984
2017-05-31,80.52632904052734
2017-06-01,81.71044158935547
2017-06-02,81.77671813964844
2017-06-05,81.3220443725586
2017-06-06,80.97154998779297
2017-06-07,81.17047882080078
2017-06-08,80.75370788574219
2017-06-09,81.13259887695312
2017-06-12,80.93366241455078
2017-06-13,81.63465118408203
2017-06-14,81.70094299316406
2017-06-15,81.6820068359375
2017-06-16,81.41675567626953
2017-06-19,82.17456817626953
2017-06-20,82.30719757080078
2017-06-21,82.41140747070312
2017-06-22,82.24087524414062
2017-06-23,82.221923828125
2017-06-26,82.54400634765625
2017-06-27,81.81462097167969
2017-06-28,82.3450698852539
2017-06-29,81.92827606201172
2017-06-30,82.27877044677734
2017-07-03,82.4871826171875
2017-07-05,82.68608093261719
2017-07-06,82.70503997802734
2017-07-07,83.44389343261719
2017-07-10,83.642822265625
2017-07-11,83.51966857910156
2017-07-12,84.28695678710938
2017-07-13,83.95540618896484
2017-07-14,84.7132339477539
2017-07-17,85.05422973632812
2017-07-18,85.00686645507812
2017-07-19,85.33841705322266
2017-07-20,84.9689712524414
2017-07-21,84.78900146484375
2017-07-24,85.04566955566406
2017-07-25,84.31368255615234
2017-07-26,83.71475219726562
2017-07-27,83.65771484375
2017-07-28,78.24848937988281
2017-07-31,76.93657684326172
2017-08-01,78.4386215209961
2017-08-02,78.19145965576172
2017-08-03,78.19145965576172
2017-08-04,78.29601287841797
2017-08-07,78.65727233886719
2017-08-08,78.65727233886719
2017-08-09,78.41011047363281
2017-08-10,77.48796081542969
2017-08-11,78.08686065673828
2017-08-14,78.81888580322266
2017-08-15,78.66677856445312
2017-08-16,79.42731475830078
2017-08-17,78.0773696899414
2017-08-18,78.09637451171875
2017-08-21,77.46895599365234
2017-08-22,78.06786346435547
2017-08-23,77.58301544189453
2017-08-24,77.07919311523438
2017-08-25,78.32455444335938
2017-08-28,77.8207015991211
2017-08-29,77.95378875732422
2017-08-30,78.87590789794922
2017-08-31,79.4843521118164
2017-09-01,79.74101257324219
2017-09-05,79.14210510253906
2017-09-06,78.7618408203125
2017-09-07,79.4843521118164
2017-09-08,79.6839828491211
2017-09-11,80.91983032226562
2017-09-12,80.99588775634766
2017-09-13,80.33041381835938
2017-09-14,80.68217468261719
2017-09-15,80.53007507324219
2017-09-18,81.22403717041016
2017-09-19,81.33811950683594
2017-09-20,81.87049865722656
2017-09-21,81.89898681640625
2017-09-22,81.49022674560547
2017-09-25,82.47891998291016
2017-09-26,82.46939849853516
2017-09-27,82.26976776123047
2017-09-28,82.78313446044922
2017-09-29,82.05110931396484
2017-10-02,83.54364013671875
2017-10-03,84.06649780273438
2017-10-04,83.79081726074219
2017-10-05,83.79081726074219
2017-10-06,84.2091064453125
2017-10-09,84.09503936767578
2017-10-10,84.10452270507812
2017-10-11,83.99996185302734
2017-10-12,84.12355041503906
2017-10-13,84.45626068115234
2017-10-16,84.55134582519531
2017-10-17,84.58937072753906
2017-10-18,84.22811889648438
2017-10-19,84.26612854003906
2017-10-20,84.79850769042969
2017-10-23,84.63688659667969
2017-10-24,84.72245788574219
2017-10-25,84.12355041503906
2017-10-26,84.55134582519531
2017-10-27,83.59117889404297
2017-10-30,82.19371032714844
2017-10-31,83.08110046386719
2017-11-01,83.40554809570312
2017-11-02,82.63263702392578
2017-11-03,82.9570541381836
2017-11-06,81.91699981689453
2017-11-07,81.79295349121094
2017-11-08,81.80247497558594
2017-11-09,80.87694549560547
2017-11-10,81.02007293701172
2017-11-13,81.66889953613281
2017-11-14,81.68799591064453
2017-11-15,81.5639419555664
2017-11-16,82.16507720947266
2017-11-17,81.72615814208984
2017-11-20,81.55440521240234
2017-11-21,82.57538604736328
2017-11-22,81.91699981689453
2017-11-24,82.29867553710938
2017-11-27,82.76622009277344
2017-11-28,82.92845153808594
2017-11-29,83.54865264892578
2017-11-30,84.3597183227539
2017-12-01,83.58683013916016
2017-12-04,84.02574920654297
2017-12-05,84.92268371582031
2017-12-06,84.13070678710938
2017-12-07,84.33109283447266
2017-12-08,83.8730697631836
2017-12-11,83.281494140625
2017-12-12,82.47042083740234
2017-12-13,82.71852111816406
2017-12-14,82.4131851196289
2017-12-15,82.9952163696289
2017-12-18,82.60401153564453
2017-12-19,82.61355590820312
2017-12-20,82.375
2017-12-21,81.83112335205078
2017-12-22,81.9647216796875
2017-12-26,81.47807312011719
2017-12-27,81.69754028320312
2017-12-28,82.77576446533203
2017-12-29,82.3272933959961
2018-01-02,83.02388000488281
2018-01-03,83.19561004638672
2018-01-04,82.06967163085938
2018-01-05,82.92845153808594
2018-01-08,83.20515441894531
2018-01-09,82.43225860595703
2018-01-10,81.74525451660156
2018-01-11,82.29867553710938
2018-01-12,82.59446716308594
2018-01-16,82.28912353515625
2018-01-17,82.86163330078125
2018-01-18,83.24330139160156
2018-01-19,84.5505599975586
2018-01-22,83.45323944091797
2018-01-23,83.58683013916016
2018-01-24,84.15933227539062
2018-01-25,85.3330078125
2018-01-26,85.05625915527344
2018-01-29,83.71089172363281
2018-01-30,83.97901916503906
2018-01-31,83.720458984375
2018-02-01,83.16497802734375
2018-02-02,82.16902923583984
2018-02-05,79.85142517089844
2018-02-06,80.24407196044922
2018-02-07,80.301513671875
2018-02-08,77.9360580444336
2018-02-09,78.68305206298828
2018-02-12,79.10443115234375
2018-02-13,85.92312622070312
2018-02-14,86.82334899902344
2018-02-15,87.31175231933594
2018-02-16,87.94381713867188
2018-02-20,87.20640563964844
2018-02-21,86.344482421875
2018-02-22,86.77545166015625
2018-02-23,87.13936614990234
2018-02-26,86.9382553100586
2018-02-27,85.71241760253906
2018-02-28,85.63579559326172
2018-03-01,85.23358154296875
2018-03-02,85.88480377197266
2018-03-05,86.57434844970703
2018-03-06,86.92867279052734
2018-03-07,86.32534790039062
2018-03-08,86.14337921142578
2018-03-09,87.02442932128906
2018-03-12,86.9382553100586
2018-03-13,86.67011260986328
2018-03-14,86.25830841064453
2018-03-15,86.45941925048828
2018-03-16,86.33492279052734
2018-03-19,86.1529541015625
2018-03-20,85.9805679321289
2018-03-21,85.79861450195312
2018-03-22,84.23759460449219
2018-03-23,83.09796142578125
2018-03-26,84.47701263427734
2018-03-27,84.35250854492188
2018-03-28,84.62068176269531
2018-03-29,86.0284652709961
2018-04-02,84.20886993408203
2018-04-03,85.76988220214844
2018-04-04,85.91354370117188
2018-04-05,86.57434844970703
2018-04-06,84.7547378540039
2018-04-09,86.09550476074219
2018-04-10,88.79615020751953
2018-04-11,88.3460464477539
2018-04-12,88.77701568603516
2018-04-13,88.82489013671875
2018-04-16,90.3188705444336
2018-04-17,92.06184387207031
2018-04-18,91.56385040283203
2018-04-19,90.78813171386719
2018-04-20,90.44337463378906
2018-04-23,90.35718536376953
2018-04-24,89.23667907714844
2018-04-25,89.20796203613281
2018-04-26,89.33247375488281
2018-04-27,89.50485229492188
2018-04-30,89.54315185546875
2018-05-01,89.58146667480469
2018-05-02,88.64292907714844
2018-05-03,87.26387786865234
2018-05-04,88.35562133789062
2018-05-07,88.87277221679688
2018-05-08,88.18084716796875
2018-05-09,89.33405303955078
2018-05-10,90.13166809082031
2018-05-11,90.61215209960938
2018-05-14,89.72805786132812
2018-05-15,88.50758361816406
2018-05-16,89.89142608642578
2018-05-17,89.65117645263672
2018-05-18,89.91064453125
2018-05-21,90.34310150146484
2018-05-22,90.29503631591797
2018-05-23,90.41996002197266
2018-05-24,90.36231231689453
2018-05-25,90.41036987304688
2018-05-29,89.67037963867188
2018-05-30,90.29503631591797
2018-05-31,88.71902465820312
2018-06-01,89.15145111083984
2018-06-04,90.1989517211914
2018-06-05,90.25660705566406
2018-06-06,90.24699401855469
2018-06-07,89.60311889648438
2018-06-08,90.00675201416016
2018-06-11,90.1604995727539
2018-06-12,90.47763061523438
2018-06-13,90.6409912109375
2018-06-14,91.15994262695312
2018-06-15,91.21760559082031
2018-06-18,91.1407241821289
2018-06-19,90.57373046875
2018-06-20,90.94851684570312
2018-06-21,89.46858978271484
2018-06-22,89.01692199707031
2018-06-25,88.58446502685547
2018-06-26,89.09379577636719
2018-06-27,88.50758361816406
2018-06-28,89.09379577636719
2018-06-29,89.73766326904297
2018-07-02,89.93946075439453
2018-07-03,90.3238754272461
2018-07-05,90.8524169921875
2018-07-06,90.41036987304688
2018-07-09,91.39057159423828
2018-07-10,92.36117553710938
2018-07-11,91.94795227050781
2018-07-12,92.00560760498047
2018-07-13,91.16954040527344
2018-07-16,89.65117645263672
2018-07-17,90.94851684570312
2018-07-18,90.9292984008789
2018-07-19,92.57259368896484
2018-07-20,92.04405212402344
2018-07-23,91.42900085449219
2018-07-24,91.05423736572266
2018-07-25,91.03501892089844
2018-07-26,92.3227310180664
2018-07-27,98.88633728027344
2018-07-30,98.50194549560547
2018-07-31,98.76227569580078
2018-08-01,98.76227569580078
2018-08-02,99.29256439208984
2018-08-03,100.37246704101562
2018-08-06,100.47852325439453
2018-08-07,99.84217834472656
2018-08-08,99.27328491210938
2018-08-09,100.17963409423828
2018-08-10,98.71405792236328
2018-08-13,97.7691421508789
2018-08-14,98.32838439941406
2018-08-15,97.71129608154297
2018-08-16,98.02946472167969
2018-08-17,99.08045959472656
2018-08-20,99.1768798828125
2018-08-21,99.59146881103516
2018-08-22,99.48540496826172
2018-08-23,99.2250747680664
2018-08-24,100.08321380615234
2018-08-27,100.79670715332031
2018-08-28,100.16998291015625
2018-08-29,100.95097351074219
2018-08-30,100.95097351074219
2018-08-31,100.96063995361328
2018-09-04,102.57083129882812
2018-09-05,104.3063735961914
2018-09-06,105.04879760742188
2018-09-07,104.0363998413086
2018-09-10,104.67276763916016
2018-09-11,104.63418579101562
2018-09-12,105.4730453491211
2018-09-13,106.85183715820312
2018-09-14,107.96066284179688
2018-09-17,107.31464385986328
2018-09-18,107.59427642822266
2018-09-19,107.15074920654297
2018-09-20,106.53364562988281
2018-09-21,106.36975860595703
2018-09-24,106.4275894165039
2018-09-25,104.8656005859375
2018-09-26,104.7113265991211
2018-09-27,104.46063995361328
2018-09-28,103.88211822509766
2018-10-01,103.91104125976562
2018-10-02,104.27745819091797
2018-10-03,104.13282775878906
2018-10-04,103.2553939819336
2018-10-05,103.3325424194336
2018-10-08,103.81462860107422
2018-10-09,101.93445587158203
2018-10-10,98.75262451171875
2018-10-11,97.93305206298828
2018-10-12,98.01020050048828
2018-10-15,98.4922866821289
2018-10-16,101.81877136230469
2018-10-17,101.259521484375
2018-10-18,100.53636169433594
2018-10-19,100.58458709716797
2018-10-22,100.24712371826172
2018-10-23,99.9675064086914
2018-10-24,96.49642944335938
2018-10-25,97.6630859375
2018-10-26,96.7663803100586
2018-10-29,96.57354736328125
2018-10-30,98.07313537597656
2018-10-31,98.64393615722656
2018-11-01,99.82425689697266
2018-11-02,100.4240951538086
2018-11-05,98.5665283203125
2018-11-06,100.71434020996094
2018-11-07,101.6915054321289
2018-11-08,101.71084594726562
2018-11-09,100.89816284179688
2018-11-12,98.46011352539062
2018-11-13,99.05028533935547
2018-11-14,98.76004791259766
2018-11-15,101.38190460205078
2018-11-16,102.82345581054688
2018-11-19,101.75921630859375
2018-11-20,100.91751098632812
2018-11-21,100.13385772705078
2018-11-23,100.5208511352539
2018-11-26,100.31768035888672
2018-11-27,98.97289276123047
2018-11-28,100.64662170410156
2018-11-29,100.47248077392578
2018-11-30,100.66596984863281
2018-12-03,101.06262969970703
2018-12-04,99.59207916259766
2018-12-06,98.32467651367188
2018-12-07,96.52516174316406
2018-12-10,95.88662719726562
2018-12-11,95.46094512939453
2018-12-12,96.6799545288086
2018-12-13,97.0572738647461
2018-12-14,97.07664489746094
2018-12-17,95.43192291259766
2018-12-18,94.75469970703125
2018-12-19,92.48110961914062
2018-12-20,91.91998291015625
2018-12-21,90.50747680664062
2018-12-24,86.78267669677734
2018-12-26,88.78535461425781
2018-12-27,89.36585235595703
2018-12-28,89.68509674072266
2018-12-31,91.01055145263672
2019-01-02,87.24706268310547
2019-01-03,86.1925277709961
2019-01-04,88.10811614990234
2019-01-07,88.9594955444336
2019-01-08,90.47844696044922
2019-01-09,90.43973541259766
2019-01-10,91.50396728515625
2019-01-11,91.64909362792969
2019-01-14,90.90414428710938
2019-01-15,91.72648620605469
2019-01-16,91.6297378540039
2019-01-17,92.81005096435547
2019-01-18,94.51282501220703
2019-01-22,93.303466796875
2019-01-23,94.21289825439453
2019-01-24,93.97103118896484
2019-01-25,94.22257995605469
2019-01-28,94.69664001464844
2019-01-29,95.08496856689453
2019-01-30,95.10438537597656
2019-01-31,96.23058319091797
2019-02-01,96.64805603027344
2019-02-04,96.93929290771484
2019-02-05,98.12374114990234
2019-02-06,98.62857818603516
2019-02-07,98.97808837890625
2019-02-08,98.43440246582031
2019-02-11,98.73536682128906
2019-02-12,99.3373031616211
2019-02-13,99.80330657958984
2019-02-14,98.80332946777344
2019-02-15,98.9683837890625
2019-02-19,98.58975219726562
2019-02-20,99.279052734375
2019-02-21,100.1139907836914
2019-02-22,99.07515716552734
2019-02-25,98.59945678710938
2019-02-26,98.35673522949219
2019-02-27,98.4538345336914
2019-02-28,98.76451110839844
2019-03-01,97.87132263183594
2019-03-04,98.64801025390625
2019-03-05,98.5120849609375
2019-03-06,97.56063079833984
2019-03-07,96.96842193603516
2019-03-08,97.54122924804688
2019-03-11,99.04603576660156
2019-03-12,99.279052734375
2019-03-13,99.29846954345703
2019-03-14,99.89069366455078
2019-03-15,100.0460205078125
2019-03-18,100.68678283691406
2019-03-19,100.5799789428711
2019-03-20,100.9197769165039
2019-03-21,102.46342468261719
2019-03-22,100.80327606201172
2019-03-25,101.46345520019531
2019-03-26,102.36634826660156
2019-03-27,102.44401550292969
2019-03-28,103.09449768066406
2019-03-29,103.28865814208984
2019-04-01,104.57017517089844
2019-04-02,104.09446716308594
2019-04-03,104.33717346191406
2019-04-04,104.94880676269531
2019-04-05,105.57014465332031
2019-04-08,105.81285095214844
2019-04-09,105.00707244873047
2019-04-10,105.86139678955078
2019-04-11,106.46334075927734
2019-04-12,107.09436798095703
2019-04-15,106.68661499023438
2019-04-16,106.42449951171875
2019-04-17,104.56047821044922
2019-04-18,105.05561065673828
2019-04-22,105.75460815429688
2019-04-23,106.8516616821289
2019-04-24,106.73517608642578
2019-04-25,106.25943756103516
2019-04-26,108.17203521728516
2019-04-29,108.07494354248047
2019-04-30,108.34766387939453
2019-05-01,109.87684631347656
2019-05-02,110.06189727783203
2019-05-03,110.88980102539062
2019-05-06,112.02938842773438
2019-05-07,111.00666809082031
2019-05-08,111.02615356445312
2019-05-09,110.06189727783203
2019-05-10,110.64630126953125
2019-05-13,109.86711120605469
2019-05-14,110.04242706298828
2019-05-15,110.295654296875
2019-05-16,111.14303588867188
2019-05-17,110.82162475585938
2019-05-20,110.10086059570312
2019-05-21,110.5294189453125
2019-05-22,110.20799255371094
2019-05-23,110.02293395996094
2019-05-24,109.99372100830078
2019-05-28,109.9645004272461
2019-05-29,109.76968383789062
2019-05-30,110.55863189697266
2019-05-31,110.32487487792969
2019-06-03,111.06510925292969
2019-06-04,112.71117401123047
2019-06-05,114.08451080322266
2019-06-06,117.1039047241211
2019-06-07,118.74998474121094
2019-06-10,120.01618194580078
2019-06-11,119.39281463623047
2019-06-12,118.457763671875
2019-06-13,117.58116912841797
2019-06-14,116.9675521850586
2019-06-17,117.04547119140625
2019-06-18,116.38314819335938
2019-06-19,116.30523681640625
2019-06-20,116.69483184814453
2019-06-21,116.2760009765625
2019-06-24,115.69161224365234
2019-06-25,117.91233825683594
2019-06-26,116.13965606689453
2019-06-27,118.38959503173828
2019-06-28,121.1070327758789
2019-07-01,121.03887176513672
2019-07-02,120.32786560058594
2019-07-03,122.64596557617188
2019-07-05,121.37003326416016
2019-07-08,120.76615905761719
2019-07-09,120.84407043457031
2019-07-10,120.36681365966797
2019-07-11,120.79537200927734
2019-07-12,120.20122528076172
2019-07-15,119.72396850585938
2019-07-16,119.9577407836914
2019-07-17,120.318115234375
2019-07-18,121.12653350830078
2019-07-19,120.19149017333984
2019-07-22,119.9577407836914
2019-07-23,121.27263641357422
2019-07-24,120.08434295654297
2019-07-25,119.72396850585938
2019-07-26,121.25315856933594
2019-07-29,121.69145202636719
2019-07-30,120.93930053710938
2019-07-31,118.21399688720703
2019-08-01,114.83422088623047
2019-08-02,115.28355407714844
2019-08-05,114.36534881591797
2019-08-06,116.94413757324219
2019-08-07,118.83916473388672
2019-08-08,120.02110290527344
2019-08-09,118.2726058959961
2019-08-12,117.23717498779297
2019-08-13,118.40935516357422
2019-08-14,116.32874298095703
2019-08-15,115.58636474609375
2019-08-16,117.46185302734375
2019-08-19,117.43254852294922
2019-08-20,116.12361145019531
2019-08-21,116.56317901611328
2019-08-22,117.74512481689453
2019-08-23,117.47162628173828
2019-08-26,118.1846923828125
2019-08-27,118.68286895751953
2019-08-28,119.03451538085938
2019-08-29,118.86846160888672
2019-08-30,119.38616943359375
2019-09-03,116.87576293945312
2019-09-04,119.1126708984375
2019-09-05,118.38981628417969
2019-09-06,118.07723236083984
2019-09-09,116.33851623535156
2019-09-10,116.34828186035156
2019-09-11,115.87940216064453
2019-09-12,115.3128662109375
2019-09-13,115.6547622680664
2019-09-16,113.7792739868164
2019-09-17,114.29698181152344
2019-09-18,115.55706024169922
2019-09-19,115.11749267578125
2019-09-20,115.3128662109375
2019-09-23,115.36170196533203
2019-09-24,115.7621841430664
2019-09-25,116.35806274414062
2019-09-26,116.16268157958984
2019-09-27,115.91848754882812
2019-09-30,115.70357513427734
2019-10-01,114.9416732788086
2019-10-02,112.67546844482422
2019-10-03,112.32381439208984
2019-10-04,114.60955810546875
2019-10-07,113.85740661621094
2019-10-08,112.1186752319336
2019-10-09,113.7792739868164
2019-10-10,113.61319732666016
2019-10-11,113.63274383544922
2019-10-14,113.16386413574219
2019-10-15,112.5093994140625
2019-10-16,112.79268646240234
2019-10-17,113.84764862060547
2019-10-18,115.04910278320312
2019-10-21,115.16633605957031
2019-10-22,113.95508575439453
2019-10-23,114.64862823486328
2019-10-24,114.61931610107422
2019-10-25,115.14679718017578
2019-10-28,115.45938110351562
2019-10-29,116.11583709716797
2019-10-30,116.84090423583984
2019-10-31,115.76312255859375
2019-11-01,108.55180358886719
2019-11-04,106.47462463378906
2019-11-05,106.46482849121094
2019-11-06,107.27806091308594
2019-11-07,107.18988800048828
2019-11-08,106.79796600341797
2019-11-11,106.3864517211914
2019-11-12,106.03372192382812
2019-11-13,107.40544891357422
2019-11-14,108.23828125
2019-11-15,107.73857879638672
2019-11-18,108.11090087890625
2019-11-19,108.26766967773438
2019-11-20,108.463623046875
2019-11-21,109.05150604248047
2019-11-22,107.89533233642578
2019-11-25,108.70857238769531
2019-11-26,110.28605651855469
2019-11-27,110.55059051513672
2019-11-29,109.85493469238281
2019-12-02,109.74716186523438
2019-12-03,110.43301391601562
2019-12-04,109.52181243896484
2019-12-05,109.6883773803711
2019-12-06,109.81575012207031
2019-12-09,110.35462188720703
2019-12-10,109.67857360839844
2019-12-11,110.29584503173828
2019-12-12,111.87332153320312
2019-12-13,111.66755676269531
2019-12-16,112.010498046875
2019-12-17,111.0600814819336
2019-12-18,110.79554748535156
2019-12-19,110.97190856933594
2019-12-20,112.63756561279297
2019-12-23,113.03927612304688
2019-12-24,112.41221618652344
2019-12-26,112.50039672851562
2019-12-27,112.69635772705078
2019-12-30,113.42140197753906
2019-12-31,113.28422546386719
2020-01-02,111.38341522216797
2020-01-03,111.73614501953125
2020-01-06,111.7459487915039
2020-01-07,110.62896728515625
2020-01-08,110.9327163696289
2020-01-09,112.3436279296875
2020-01-10,113.45079040527344
2020-01-13,113.85250854492188
2020-01-14,113.78392791748047
2020-01-15,114.35221099853516
2020-01-16,115.83170318603516
2020-01-17,114.94987487792969
2020-01-21,113.29402923583984
2020-01-22,113.33320617675781
2020-01-23,114.9988784790039
2020-01-24,114.7539291381836
2020-01-27,114.13664245605469
2020-01-28,113.97940063476562
2020-01-29,113.94991302490234
2020-01-30,114.53961944580078
2020-01-31,113.52730560302734
2020-02-03,115.22759246826172
2020-02-04,114.94258117675781
2020-02-05,115.8467788696289
2020-02-06,115.51261901855469
2020-02-07,114.69686889648438
2020-02-10,113.81231689453125
2020-02-11,114.05802917480469
2020-02-12,112.74102783203125
2020-02-13,114.2054443359375
2020-02-14,114.6673812866211
2020-02-18,113.28158569335938
2020-02-19,113.03587341308594
2020-02-20,112.95724487304688
2020-02-21,110.0578842163086
2020-02-24,107.33543395996094
2020-02-25,105.10440063476562
2020-02-26,102.88318634033203
2020-02-27,100.64232635498047
2020-02-28,99.33515167236328
2020-03-02,101.80207824707031
2020-03-03,100.99615478515625
2020-03-04,105.5958251953125
2020-03-05,102.19519805908203
2020-03-06,105.45821380615234
2020-03-09,99.70862579345703
2020-03-10,102.20502471923828
2020-03-11,97.37931060791016
2020-03-12,92.77964782714844
2020-03-13,94.73548126220703
2020-03-16,86.37155151367188
2020-03-17,94.79444885253906
2020-03-18,95.08929443359375
2020-03-19,97.1827392578125
2020-03-20,90.92208862304688
2020-03-23,82.4893569946289
2020-03-24,86.5484619140625
2020-03-25,88.632080078125
2020-03-26,94.54875183105469
2020-03-27,92.38650512695312
2020-03-30,98.7552719116211
2020-03-31,97.8314208984375
2020-04-01,94.5585708618164
2020-04-02,94.49959564208984
2020-04-03,92.57325744628906
2020-04-06,99.03047943115234
2020-04-07,99.3843002319336
2020-04-08,102.32296752929688
2020-04-09,105.42872619628906
2020-04-13,100.59317779541016
2020-04-14,102.23451232910156
2020-04-15,99.19756317138672
2020-04-16,100.10177612304688
2020-04-17,101.17306518554688
2020-04-20,105.10440063476562
2020-04-21,104.29847717285156
2020-04-22,104.47538757324219
2020-04-23,103.21734619140625
2020-04-24,102.33280181884766
2020-04-27,110.64759063720703
2020-04-28,109.6221694946289
2020-04-29,108.5375747680664
2020-04-30,105.5796127319336
2020-05-01,104.65277099609375
2020-05-04,105.31338500976562
2020-05-05,104.08089447021484
2020-05-06,103.39071655273438
2020-05-07,103.99217987060547
2020-05-08,106.02330017089844
2020-05-11,104.82038879394531
2020-05-12,102.49346160888672
2020-05-13,100.98489379882812
2020-05-14,101.02433776855469
2020-05-15,100.07779693603516
2020-05-18,102.69065856933594
2020-05-19,102.27655792236328
2020-05-20,102.947021484375
2020-05-21,103.61748504638672
2020-05-22,103.62734985351562
2020-05-26,108.01500701904297
2020-05-27,110.97296905517578
2020-05-28,110.0362777709961
2020-05-29,109.82920837402344
2020-06-01,109.85879516601562
2020-06-02,110.49968719482422
2020-06-03,111.69273376464844
2020-06-04,110.56871032714844
2020-06-05,111.8110580444336
2020-06-08,111.98853302001953
2020-06-09,110.89408111572266
2020-06-10,110.0757064819336
2020-06-11,102.78926086425781
2020-06-12,103.88370513916016
2020-06-15,103.93301391601562
2020-06-16,105.88526153564453
2020-06-17,105.41199493408203
2020-06-18,105.4908676147461
2020-06-19,106.09232330322266
2020-06-22,106.04302978515625
2020-06-23,105.93457794189453
2020-06-24,104.45558166503906
2020-06-25,106.09232330322266
2020-06-26,106.21063995361328
2020-06-29,107.71920013427734
2020-06-30,110.41094970703125
2020-07-01,110.90394592285156
2020-07-02,113.35905456542969
2020-07-06,113.64498901367188
2020-07-07,113.53652954101562
2020-07-08,111.34764099121094
2020-07-09,112.16600799560547
2020-07-10,113.3393325805664
2020-07-13,111.84062957763672
2020-07-14,114.6802749633789
2020-07-15,116.24800109863281
2020-07-16,115.59723663330078
2020-07-17,117.72697448730469
2020-07-20,117.61851501464844
2020-07-21,116.52407836914062
2020-07-22,116.83959197998047
2020-07-23,116.78043365478516
2020-07-24,117.18468475341797
2020-07-27,118.1706771850586
2020-07-28,116.74658966064453
2020-07-29,117.49817657470703
2020-07-30,116.60812377929688
2020-07-31,113.92803955078125
2020-08-03,117.34984588623047
2020-08-04,117.31028747558594
2020-08-05,117.05315399169922
2020-08-06,116.36088562011719
2020-08-07,117.9333267211914
2020-08-10,115.70816040039062
2020-08-11,115.45104217529297
2020-08-12,116.7861328125
2020-08-13,117.21139526367188
2020-08-14,117.18172454833984
2020-08-17,116.94436645507812
2020-08-18,116.57845306396484
2020-08-19,116.39055633544922
2020-08-20,116.25210571289062
2020-08-21,116.49934387207031
2020-08-24,117.79486846923828
2020-08-25,116.82569122314453
2020-08-26,117.29051208496094
2020-08-27,118.72449493408203
2020-08-28,116.82569122314453
2020-08-31,117.08281707763672
2020-09-01,118.1805648803711
2020-09-02,120.91010284423828
2020-09-03,117.85420227050781
2020-09-04,117.40917205810547
2020-09-08,114.77854919433594
2020-09-09,116.58834075927734
2020-09-10,115.89608001708984
2020-09-11,117.05315399169922
2020-09-14,117.76520538330078
2020-09-15,117.02348327636719
2020-09-16,116.46966552734375
2020-09-17,114.67964935302734
2020-09-18,113.76981353759766
2020-09-21,112.19735717773438
2020-09-22,113.06765747070312
2020-09-23,110.9018325805664
2020-09-24,111.0205078125
2020-09-25,110.86226654052734
2020-09-28,111.11940002441406
2020-09-29,111.37653350830078
2020-09-30,111.95011901855469
2020-10-01,112.4446029663086
2020-10-02,111.60398864746094
2020-10-05,113.28523254394531
2020-10-06,113.29511260986328
2020-10-07,113.7104721069336
2020-10-08,115.23346710205078
2020-10-09,115.52025604248047
2020-10-12,116.7366943359375
2020-10-13,116.2619857788086
2020-10-14,115.15435791015625
2020-10-15,115.05545043945312
2020-10-16,115.06535339355469
2020-10-19,113.87860107421875
2020-10-20,115.66860961914062
2020-10-21,116.44000244140625
2020-10-22,117.00370788574219
2020-10-23,117.04326629638672
2020-10-26,116.16309356689453
2020-10-27,114.72470092773438
2020-10-28,111.44116973876953
2020-10-29,112.036376953125
2020-10-30,113.17716979980469
2020-11-02,117.24436950683594
2020-11-03,118.60340881347656
2020-11-04,118.09749603271484
2020-11-05,121.92660522460938
2020-11-06,122.611083984375
2020-11-09,122.18452453613281
2020-11-10,126.58900451660156
2020-11-11,124.2677230834961
2020-11-12,123.27571868896484
2020-11-13,124.06932067871094
2020-11-16,125.84500122070312
2020-11-17,126.34099578857422
2020-11-18,125.35892486572266
2020-11-19,126.21204376220703
2020-11-20,126.78740692138672
2020-11-23,125.84500122070312
2020-11-24,126.85684204101562
2020-11-25,125.2795639038086
2020-11-27,126.22196197509766
2020-11-30,125.309326171875
2020-12-01,126.79731750488281
2020-12-02,125.24980163574219
2020-12-03,124.86293029785156
2020-12-04,126.65843963623047
2020-12-07,127.60084533691406
2020-12-08,128.15635681152344
2020-12-09,128.49363708496094
2020-12-10,129.42611694335938
2020-12-11,129.40628051757812
2020-12-14,127.38260650634766
2020-12-15,129.21778869628906
2020-12-16,130.05108642578125
2020-12-17,132.0747528076172
2020-12-18,133.02708435058594
2020-12-21,133.81076049804688
2020-12-22,133.4238739013672
2020-12-23,133.45364379882812
2020-12-24,134.6142578125
2020-12-28,134.59442138671875
2020-12-29,134.22738647460938
2020-12-30,135.2987518310547
2020-12-31,135.7947540283203
2021-01-04,132.92787170410156
2021-01-05,132.63027954101562
2021-01-06,136.6181182861328
2021-01-07,138.582275390625
2021-01-08,137.9573211669922
2021-01-11,137.67955017089844
2021-01-12,137.044677734375
2021-01-13,137.47122192382812
2021-01-14,138.3342742919922
2021-01-15,137.71922302246094
2021-01-19,136.1617889404297
2021-01-20,139.49490356445312
2021-01-21,137.00498962402344
2021-01-22,137.0843505859375
2021-01-25,138.4533233642578
2021-01-26,138.09527587890625
2021-01-27,132.5257110595703
2021-01-28,134.51483154296875
2021-01-29,132.2472381591797
2021-02-01,133.3611297607422
2021-02-02,136.19564819335938
2021-02-03,135.81771850585938
2021-02-04,137.24989318847656
2021-02-05,139.8954315185547
2021-02-08,141.208251953125
2021-02-09,141.397216796875
2021-02-10,142.47134399414062
2021-02-11,142.19287109375
2021-02-12,143.84385681152344
2021-02-16,142.8194580078125
2021-02-17,142.43157958984375
2021-02-18,140.2236328125
2021-02-19,131.52120971679688
2021-02-22,128.3982696533203
2021-02-23,127.58271789550781
2021-02-24,128.0601043701172
2021-02-25,129.5917510986328
2021-02-26,129.36300659179688
2021-03-01,129.89012145996094
2021-03-02,129.6414794921875
2021-03-03,130.33766174316406
2021-03-04,129.69117736816406
2021-03-05,133.3611297607422
2021-03-08,136.9614715576172
2021-03-09,136.9415740966797
2021-03-10,138.6223907470703
2021-03-11,138.6223907470703
2021-03-12,140.0048370361328
2021-03-15,141.35743713378906
2021-03-16,139.73629760742188
2021-03-17,140.51205444335938
2021-03-18,140.7407989501953
2021-03-19,138.55274963378906
2021-03-22,140.8203582763672
2021-03-23,140.0048370361328
2021-03-24,141.06900024414062
2021-03-25,141.6956024169922
2021-03-26,144.03282165527344
2021-03-29,143.98309326171875
2021-03-30,142.30227661132812
2021-03-31,140.89993286132812
2021-04-01,143.0879669189453
2021-04-05,143.9035186767578
2021-04-06,145.17657470703125
2021-04-07,142.8094940185547
2021-04-08,142.8990020751953
2021-04-09,144.41073608398438
2021-04-12,145.41526794433594
2021-04-13,145.53460693359375
2021-04-14,145.01742553710938
2021-04-15,146.39987182617188
2021-04-16,147.2751007080078
2021-04-19,148.896240234375
2021-04-20,149.60238647460938
2021-04-21,151.11410522460938
2021-04-22,149.25428771972656
2021-04-23,150.62677001953125
2021-04-26,150.0996551513672
2021-04-27,151.19644165039062
2021-04-28,150.67794799804688
2021-04-29,150.47854614257812
2021-04-30,150.36886596679688
2021-05-03,152.01405334472656
2021-05-04,154.56655883789062
2021-05-05,153.72900390625
2021-05-06,156.06216430664062
2021-05-07,157.09912109375
2021-05-10,155.02520751953125
2021-05-11,153.53956604003906
2021-05-12,151.16651916503906
2021-05-13,154.16770935058594
2021-05-14,153.09088134765625
2021-05-17,152.66213989257812
2021-05-18,150.47854614257812
2021-05-19,149.10256958007812
2021-05-20,149.302001953125
2021-05-21,149.19232177734375
2021-05-24,148.82339477539062
2021-05-25,147.29786682128906
2021-05-26,147.427490234375
2021-05-27,146.34068298339844
2021-05-28,146.8791046142578
2021-06-01,146.4503631591797
2021-06-02,145.2339324951172
2021-06-03,144.9746856689453
2021-06-04,145.13421630859375
2021-06-07,142.10311889648438
2021-06-08,142.3623504638672
2021-06-09,141.75413513183594
2021-06-10,144.56590270996094
2021-06-11,145.4034423828125
2021-06-14,143.07028198242188
2021-06-15,143.90782165527344
2021-06-16,142.20281982421875
2021-06-17,141.0960693359375
2021-06-18,139.69020080566406
2021-06-21,141.16586303710938
2021-06-22,141.21572875976562
2021-06-23,139.75999450683594
2021-06-24,139.76995849609375
2021-06-25,140.50779724121094
2021-06-28,140.2984161376953
2021-06-29,139.86965942382812
2021-06-30,140.4280242919922
2021-07-01,140.7071990966797
2021-07-02,139.99929809570312
2021-07-06,139.64035034179688
2021-07-07,140.60751342773438
2021-07-08,138.8626251220703
2021-07-09,140.76702880859375
2021-07-12,140.00926208496094
2021-07-13,138.09487915039062
2021-07-14,138.03504943847656
2021-07-15,138.15469360351562
2021-07-16,138.63328552246094
2021-07-19,136.7288818359375
2021-07-20,136.61920166015625
2021-07-21,135.66200256347656
2021-07-22,134.2760772705078
2021-07-23,135.84149169921875
2021-07-26,136.32008361816406
2021-07-27,136.35995483398438
2021-07-28,137.2473602294922
2021-07-29,138.6432647705078
2021-07-30,128.5428924560547
2021-08-02,129.52999877929688
2021-08-03,128.6300048828125
2021-08-04,126.7699966430664
2021-08-05,127.5
2021-08-06,128.42999267578125
2021-08-09,130.0800018310547
2021-08-10,129.1999969482422
2021-08-11,131.6300048828125
2021-08-12,132.67999267578125
2021-08-13,133.0500030517578
2021-08-16,132.8800048828125
2021-08-17,133.00999450683594
2021-08-18,132.0500030517578
2021-08-19,132.41000366210938
